 CoordinateX,Density,Velocity,Pressure,DummyOutput 
    0.005000000,    0.999999991,    0.000000010,    0.999999988,    0.000000000
    0.015000000,    0.999999958,    0.000000050,    0.999999941,    0.000000000
    0.025000000,    0.999999820,    0.000000213,    0.999999748,    0.000000000
    0.035000000,    0.999999302,    0.000000826,    0.999999022,    0.000000000
    0.045000000,    0.999997537,    0.000002914,    0.999996552,    0.000000000
    0.055000000,    0.999992067,    0.000009387,    0.999988894,    0.000000000
    0.065000000,    0.999976563,    0.000027731,    0.999967188,    0.000000000
    0.075000000,    0.999936276,    0.000075400,    0.999910789,    0.000000000
    0.085000000,    0.999840047,    0.000189260,    0.999776083,    0.000000000
    0.095000000,    0.999628289,    0.000439832,    0.999479689,    0.000000000
    0.105000000,    0.999198090,    0.000948949,    0.998877687,    0.000000000
    0.115000000,    0.998389549,    0.001906094,    0.997746712,    0.000000000
    0.125000000,    0.996980314,    0.003575341,    0.995776824,    0.000000000
    0.135000000,    0.994695717,    0.006284443,    0.992586647,    0.000000000
    0.145000000,    0.991237672,    0.010392615,    0.987765226,    0.000000000
    0.155000000,    0.986327436,    0.016242662,    0.980933450,    0.000000000
    0.165000000,    0.979749859,    0.024111386,    0.971807136,    0.000000000
    0.175000000,    0.971385068,    0.034173730,    0.960241500,    0.000000000
    0.185000000,    0.961219080,    0.046489808,    0.946244806,    0.000000000
    0.195000000,    0.949333675,    0.061014339,    0.929961959,    0.000000000
    0.205000000,    0.935882693,    0.077620804,    0.911638673,    0.000000000
    0.215000000,    0.921063830,    0.096130705,    0.891579588,    0.000000000
    0.225000000,    0.905092989,    0.116340496,    0.870110671,    0.000000000
    0.235000000,    0.888184821,    0.138042347,    0.847551061,    0.000000000
    0.245000000,    0.870540101,    0.161037955,    0.824195215,    0.000000000
    0.255000000,    0.852338966,    0.185146339,    0.800303735,    0.000000000
    0.265000000,    0.833738398,    0.210207204,    0.776100419,    0.000000000
    0.275000000,    0.814872428,    0.236081405,    0.751773241,    0.000000000
    0.285000000,    0.795853869,    0.262649726,    0.727477453,    0.000000000
    0.295000000,    0.776776746,    0.289810818,    0.703339620,    0.000000000
    0.305000000,    0.757718918,    0.317478835,    0.679461816,    0.000000000
    0.315000000,    0.738744598,    0.345581077,    0.655925601,    0.000000000
    0.325000000,    0.719906643,    0.374055796,    0.632795569,    0.000000000
    0.335000000,    0.701248553,    0.402850217,    0.610122419,    0.000000000
    0.345000000,    0.682806190,    0.431918805,    0.587945570,    0.000000000
    0.355000000,    0.664609243,    0.461221719,    0.566295346,    0.000000000
    0.365000000,    0.646682474,    0.490723428,    0.545194827,    0.000000000
    0.375000000,    0.629046803,    0.520391430,    0.524661406,    0.000000000
    0.385000000,    0.611720279,    0.550194980,    0.504708143,    0.000000000
    0.395000000,    0.594718982,    0.580103765,    0.485344983,    0.000000000
    0.405000000,    0.578057947,    0.610086362,    0.466579912,    0.000000000
    0.415000000,    0.561752171,    0.640108316,    0.448420160,    0.000000000
    0.425000000,    0.545817855,    0.670129519,    0.430873575,    0.000000000
    0.435000000,    0.530274073,    0.700100392,    0.413950388,    0.000000000
    0.445000000,    0.515145233,    0.729955982,    0.397665714,    0.000000000
    0.455000000,    0.500464973,    0.759606332,    0.382043417,    0.000000000
    0.465000000,    0.486282736,    0.788919968,    0.367122570,    0.000000000
    0.475000000,    0.472675551,    0.817694099,    0.352968951,    0.000000000
    0.485000000,    0.459770251,    0.845598153,    0.339696685,    0.000000000
    0.495000000,    0.447787225,    0.872062364,    0.327510864,    0.000000000
    0.505000000,    0.437127052,    0.896056652,    0.316792077,    0.000000000
    0.515000000,    0.428521365,    0.915704160,    0.308243951,    0.000000000
    0.525000000,    0.423117794,    0.928052714,    0.302976266,    0.000000000
    0.535000000,    0.421569252,    0.931303097,    0.301605916,    0.000000000
    0.545000000,    0.421702394,    0.930505407,    0.301946878,    0.000000000
    0.555000000,    0.421746132,    0.929844413,    0.302230629,    0.000000000
    0.565000000,    0.421655962,    0.929406993,    0.302420368,    0.000000000
    0.575000000,    0.421464747,    0.929088970,    0.302560066,    0.000000000
    0.585000000,    0.421172892,    0.928851208,    0.302666277,    0.000000000
    0.595000000,    0.420767433,    0.928666060,    0.302750723,    0.000000000
    0.605000000,    0.420216083,    0.928517532,    0.302820210,    0.000000000
    0.615000000,    0.419459815,    0.928396868,    0.302878493,    0.000000000
    0.625000000,    0.418401727,    0.928298034,    0.302928178,    0.000000000
    0.635000000,    0.416892212,    0.928216849,    0.302971093,    0.000000000
    0.645000000,    0.414716626,    0.928150557,    0.303008459,    0.000000000
    0.655000000,    0.411594818,    0.928096857,    0.303041303,    0.000000000
    0.665000000,    0.407202785,    0.928054099,    0.303070370,    0.000000000
    0.675000000,    0.401224532,    0.928020900,    0.303096288,    0.000000000
    0.685000000,    0.393429632,    0.927996120,    0.303119574,    0.000000000
    0.695000000,    0.383756431,    0.927978838,    0.303140654,    0.000000000
    0.705000000,    0.372369980,    0.927968222,    0.303159920,    0.000000000
    0.715000000,    0.359667904,    0.927963601,    0.303177707,    0.000000000
    0.725000000,    0.346227470,    0.927964382,    0.303194336,    0.000000000
    0.735000000,    0.332710909,    0.927970113,    0.303210088,    0.000000000
    0.745000000,    0.319760181,    0.927980489,    0.303225210,    0.000000000
    0.755000000,    0.307910274,    0.927995262,    0.303239952,    0.000000000
    0.765000000,    0.297537034,    0.928014314,    0.303254532,    0.000000000
    0.775000000,    0.288841169,    0.928037566,    0.303269178,    0.000000000
    0.785000000,    0.281860646,    0.928064984,    0.303284111,    0.000000000
    0.795000000,    0.276500901,    0.928096680,    0.303299514,    0.000000000
    0.805000000,    0.272573584,    0.928132684,    0.303315600,    0.000000000
    0.815000000,    0.269836758,    0.928173088,    0.303332555,    0.000000000
    0.825000000,    0.268031707,    0.928218166,    0.303350481,    0.000000000
    0.835000000,    0.266912890,    0.928267801,    0.303369571,    0.000000000
    0.845000000,    0.266268306,    0.928322008,    0.303389899,    0.000000000
    0.855000000,    0.265929857,    0.928381021,    0.303411340,    0.000000000
    0.865000000,    0.265774974,    0.928443726,    0.303434002,    0.000000000
    0.875000000,    0.265720932,    0.928509046,    0.303457420,    0.000000000
    0.885000000,    0.265715414,    0.928571865,    0.303479252,    0.000000000
    0.895000000,    0.265719777,    0.928580371,    0.303483402,    0.000000000
    0.905000000,    0.265616401,    0.928050468,    0.303305779,    0.000000000
    0.915000000,    0.264406882,    0.922475446,    0.301398514,    0.000000000
    0.925000000,    0.255472106,    0.882100027,    0.287730695,    0.000000000
    0.935000000,    0.220711710,    0.708342924,    0.235620226,    0.000000000
    0.945000000,    0.163039569,    0.330700643,    0.151318548,    0.000000000
    0.955000000,    0.131125445,    0.054884412,    0.107420147,    0.000000000
    0.965000000,    0.125516334,    0.004425510,    0.100586237,    0.000000000
    0.975000000,    0.125036640,    0.000310661,    0.100041100,    0.000000000
    0.985000000,    0.125002533,    0.000021444,    0.100002837,    0.000000000
    0.995000000,    0.125000173,    0.000001463,    0.100000194,    0.000000000

