 CoordinateX,Density,Velocity,Pressure,DummyOutput 
    0.005000000,    1.000000000,    0.000000000,    1.000000000,    0.000000000
    0.015000000,    1.000000000,    0.000000000,    1.000000000,    0.000000000
    0.025000000,    1.000000000,    0.000000000,    1.000000000,    0.000000000
    0.035000000,    1.000000000,    0.000000000,    1.000000000,    0.000000000
    0.045000000,    1.000000000,    0.000000000,    1.000000000,    0.000000000
    0.055000000,    1.000000000,    0.000000000,    1.000000000,    0.000000000
    0.065000000,    1.000000000,    0.000000000,    1.000000000,    0.000000000
    0.075000000,    1.000000000,    0.000000000,    1.000000000,    0.000000000
    0.085000000,    1.000000000,    0.000000000,    1.000000000,    0.000000000
    0.095000000,    1.000000000,    0.000000000,    1.000000000,    0.000000000
    0.105000000,    1.000000000,    0.000000000,    1.000000000,    0.000000000
    0.115000000,    1.000000000,    0.000000000,    1.000000000,    0.000000000
    0.125000000,    1.000000000,    0.000000000,    1.000000000,    0.000000000
    0.135000000,    1.000000000,    0.000000000,    1.000000000,    0.000000000
    0.145000000,    1.000000000,    0.000000000,    1.000000000,    0.000000000
    0.155000000,    1.000000000,    0.000000000,    1.000000000,    0.000000000
    0.165000000,    1.000000000,    0.000000000,    1.000000000,    0.000000000
    0.175000000,    1.000000000,    0.000000000,    1.000000000,    0.000000000
    0.185000000,    1.000000000,    0.000000000,    1.000000000,    0.000000000
    0.195000000,    1.000000000,    0.000000000,    1.000000000,    0.000000000
    0.205000000,    0.997737068,    0.002679964,    0.996833330,    0.000000000
    0.215000000,    0.969931519,    0.036013297,    0.958158820,    0.000000000
    0.225000000,    0.942749376,    0.069346631,    0.920777620,    0.000000000
    0.235000000,    0.916180097,    0.102679964,    0.884653488,    0.000000000
    0.245000000,    0.890213260,    0.136013297,    0.849750997,    0.000000000
    0.255000000,    0.864838561,    0.169346631,    0.816035522,    0.000000000
    0.265000000,    0.840045815,    0.202679964,    0.783473230,    0.000000000
    0.275000000,    0.815824954,    0.236013297,    0.752031062,    0.000000000
    0.285000000,    0.792166027,    0.269346631,    0.721676724,    0.000000000
    0.295000000,    0.769059198,    0.302679964,    0.692378668,    0.000000000
    0.305000000,    0.746494748,    0.336013297,    0.664106085,    0.000000000
    0.315000000,    0.724463073,    0.369346631,    0.636828887,    0.000000000
    0.325000000,    0.702954681,    0.402679964,    0.610517699,    0.000000000
    0.335000000,    0.681960196,    0.436013297,    0.585143840,    0.000000000
    0.345000000,    0.661470351,    0.469346631,    0.560679318,    0.000000000
    0.355000000,    0.641475996,    0.502679964,    0.537096811,    0.000000000
    0.365000000,    0.621968088,    0.536013297,    0.514369659,    0.000000000
    0.375000000,    0.602937696,    0.569346631,    0.492471852,    0.000000000
    0.385000000,    0.584376001,    0.602679964,    0.471378013,    0.000000000
    0.395000000,    0.566274291,    0.636013297,    0.451063393,    0.000000000
    0.405000000,    0.548623962,    0.669346631,    0.431503856,    0.000000000
    0.415000000,    0.531416521,    0.702679964,    0.412675867,    0.000000000
    0.425000000,    0.514643579,    0.736013297,    0.394556482,    0.000000000
    0.435000000,    0.498296856,    0.769346631,    0.377123335,    0.000000000
    0.445000000,    0.482368176,    0.802679964,    0.360354631,    0.000000000
    0.455000000,    0.466849470,    0.836013297,    0.344229129,    0.000000000
    0.465000000,    0.451732772,    0.869346631,    0.328726138,    0.000000000
    0.475000000,    0.437010221,    0.902679964,    0.313825502,    0.000000000
    0.485000000,    0.426319428,    0.927452603,    0.303130178,    0.000000000
    0.495000000,    0.426319428,    0.927452603,    0.303130178,    0.000000000
    0.505000000,    0.426319428,    0.927452603,    0.303130178,    0.000000000
    0.515000000,    0.426319428,    0.927452603,    0.303130178,    0.000000000
    0.525000000,    0.426319428,    0.927452603,    0.303130178,    0.000000000
    0.535000000,    0.426319428,    0.927452603,    0.303130178,    0.000000000
    0.545000000,    0.426319428,    0.927452603,    0.303130178,    0.000000000
    0.555000000,    0.426319428,    0.927452603,    0.303130178,    0.000000000
    0.565000000,    0.426319428,    0.927452603,    0.303130178,    0.000000000
    0.575000000,    0.426319428,    0.927452603,    0.303130178,    0.000000000
    0.585000000,    0.426319428,    0.927452603,    0.303130178,    0.000000000
    0.595000000,    0.426319428,    0.927452603,    0.303130178,    0.000000000
    0.605000000,    0.426319428,    0.927452603,    0.303130178,    0.000000000
    0.615000000,    0.426319428,    0.927452603,    0.303130178,    0.000000000
    0.625000000,    0.426319428,    0.927452603,    0.303130178,    0.000000000
    0.635000000,    0.426319428,    0.927452603,    0.303130178,    0.000000000
    0.645000000,    0.426319428,    0.927452603,    0.303130178,    0.000000000
    0.655000000,    0.426319428,    0.927452603,    0.303130178,    0.000000000
    0.665000000,    0.426319428,    0.927452603,    0.303130178,    0.000000000
    0.675000000,    0.426319428,    0.927452603,    0.303130178,    0.000000000
    0.685000000,    0.426319428,    0.927452603,    0.303130178,    0.000000000
    0.695000000,    0.426319428,    0.927452603,    0.303130178,    0.000000000
    0.705000000,    0.426319428,    0.927452603,    0.303130178,    0.000000000
    0.715000000,    0.426319428,    0.927452603,    0.303130178,    0.000000000
    0.725000000,    0.426319428,    0.927452603,    0.303130178,    0.000000000
    0.735000000,    0.265573712,    0.927452603,    0.303130178,    0.000000000
    0.745000000,    0.265573712,    0.927452603,    0.303130178,    0.000000000
    0.755000000,    0.265573712,    0.927452603,    0.303130178,    0.000000000
    0.765000000,    0.265573712,    0.927452603,    0.303130178,    0.000000000
    0.775000000,    0.265573712,    0.927452603,    0.303130178,    0.000000000
    0.785000000,    0.265573712,    0.927452603,    0.303130178,    0.000000000
    0.795000000,    0.265573712,    0.927452603,    0.303130178,    0.000000000
    0.805000000,    0.265573712,    0.927452603,    0.303130178,    0.000000000
    0.815000000,    0.265573712,    0.927452603,    0.303130178,    0.000000000
    0.825000000,    0.265573712,    0.927452603,    0.303130178,    0.000000000
    0.835000000,    0.265573712,    0.927452603,    0.303130178,    0.000000000
    0.845000000,    0.265573712,    0.927452603,    0.303130178,    0.000000000
    0.855000000,    0.265573712,    0.927452603,    0.303130178,    0.000000000
    0.865000000,    0.265573712,    0.927452603,    0.303130178,    0.000000000
    0.875000000,    0.265573712,    0.927452603,    0.303130178,    0.000000000
    0.885000000,    0.265573712,    0.927452603,    0.303130178,    0.000000000
    0.895000000,    0.265573712,    0.927452603,    0.303130178,    0.000000000
    0.905000000,    0.265573712,    0.927452603,    0.303130178,    0.000000000
    0.915000000,    0.265573712,    0.927452603,    0.303130178,    0.000000000
    0.925000000,    0.265573712,    0.927452603,    0.303130178,    0.000000000
    0.935000000,    0.265573712,    0.927452603,    0.303130178,    0.000000000
    0.945000000,    0.125000000,    0.000000000,    0.100000000,    0.000000000
    0.955000000,    0.125000000,    0.000000000,    0.100000000,    0.000000000
    0.965000000,    0.125000000,    0.000000000,    0.100000000,    0.000000000
    0.975000000,    0.125000000,    0.000000000,    0.100000000,    0.000000000
    0.985000000,    0.125000000,    0.000000000,    0.100000000,    0.000000000
    0.995000000,    0.125000000,    0.000000000,    0.100000000,    0.000000000

